# SPICE DE405 data for EARTH from SOLAR SYSTEM BARYCENTER 
# For the period 2000-1-1-12:00:00 to 2009-12-25-12:00:00
# 7 items per row: time (TT, mjd), XYZ position (m), XYZ velocity (m/s)
# For use with JAT: jat.eph.unittest.DE405Test.readTargetPosVels().
# NOTE: The majority of the JAT-SPICE DE405 differences in this data
#       are due to an unexplained -80 microsec (-8.046852e-5 sec) time difference
#       between JAT and SPICE.  When this difference is artifically compensated for,
#       the position results millimeters or less (at numerical limits) for all bodies.
5.1544500000000000e+004 -2.7566633290546093e+010 1.3236142868101976e+011 5.7418646137797371e+010 -2.9784947476611505e+004 -5.0297539695377600e+003 -2.1806449779210611e+003
5.1548500000000000e+004 -3.7786699133425461e+010 1.3029275706324739e+011 5.6521933358540611e+010 -2.9333105074567582e+004 -6.9372133489353246e+003 -3.0067880723280505e+003
5.1552500000000000e+004 -4.7823902495422722e+010 1.2757044957019116e+011 5.5342018363904633e+010 -2.8727148230883773e+004 -8.8097423077638996e+003 -3.8184706364022959e+003
5.1556500000000000e+004 -5.7625738009059868e+010 1.2420927717957764e+011 5.3885025935868423e+010 -2.7972377323053799e+004 -1.0631885078455571e+004 -4.6091681170573393e+003
5.1560500000000000e+004 -6.7142520076625046e+010 1.2022898908024237e+011 5.2159267411090515e+010 -2.7079846252308849e+004 -1.2390943778553152e+004 -5.3729931698051778e+003
5.1564500000000000e+004 -7.6329137566713806e+010 1.1565248324939357e+011 5.0174673766540688e+010 -2.6063762549789521e+004 -1.4082453819781904e+004 -6.1069562412401901e+003
5.1568500000000000e+004 -8.5144145514339325e+010 1.1050260590459576e+011 4.7941496518698982e+010 -2.4928812169968958e+004 -1.5709195378202949e+004 -6.8116422542954906e+003
5.1575500000000000e+004 -9.9549905451389450e+010 1.0018189968225836e+011 4.3466943622638969e+010 -2.2646685854923111e+004 -1.8378378172576900e+004 -7.9671806151631217e+003
5.1579500000000000e+004 -1.0712622021986748e+011 9.3585271434304657e+010 4.0607301270427071e+010 -2.1178737562740338e+004 -1.9779933706403743e+004 -8.5746109729333857e+003
5.1583500000000000e+004 -1.1417616888497475e+011 8.6522225203215912e+010 3.7545365667882828e+010 -1.9602672107803992e+004 -2.1075543567183951e+004 -9.1369815697838058e+003
5.1587500000000000e+004 -1.2066489326103722e+011 7.9031195991986984e+010 3.4297543522245644e+010 -1.7933884199045755e+004 -2.2255638150486779e+004 -9.6497661363840944e+003
5.1591500000000000e+004 -1.2656345671634848e+011 7.1152643128576111e+010 3.0881361870132465e+010 -1.6190064214420001e+004 -2.3318739558852500e+004 -1.0111355185939341e+004
5.1595500000000000e+004 -1.3184802148752760e+011 6.2926070060062050e+010 2.7314258137532887e+010 -1.4381149202745875e+004 -2.4270581793717531e+004 -1.0523552990790540e+004
5.1599500000000000e+004 -1.3649614615494675e+011 5.4389596712056999e+010 2.3613090738442558e+010 -1.2506817179899785e+004 -2.5111155194150444e+004 -1.0886923400898699e+004
5.1604500000000000e+004 -1.4137747715886288e+011 4.3344151388591438e+010 1.8824570716875164e+010 -1.0076913498495147e+004 -2.5992524913823792e+004 -1.1268157347372568e+004
5.1608500000000000e+004 -1.4451533887121246e+011 3.4260660692709187e+010 1.4886733060468952e+010 -8.0744665600523003e+003 -2.6551519517246466e+004 -1.1510670854911861e+004
5.1612500000000000e+004 -1.4695424568608606e+011 2.5007674929654491e+010 1.0875208337670176e+010 -6.0348976285349163e+003 -2.6972390719758194e+004 -1.1694095671761004e+004
5.1616500000000000e+004 -1.4868460529348499e+011 1.5633506523341225e+010 6.8107702165015097e+009 -3.9773943927330579e+003 -2.7253332838658025e+004 -1.1816939029621804e+004
5.1620500000000000e+004 -1.4970328372890198e+011 6.1854419316489544e+009 2.7140644996184540e+009 -1.9182764839711610e+003 -2.7401793801829532e+004 -1.1881475918260947e+004
5.1624500000000000e+004 -1.5001099045126379e+011 -3.2924417312806435e+009 -1.3954433360294371e+009 1.3695182199412926e+002 -2.7426874683180522e+004 -1.1891531352445158e+004
5.1628500000000000e+004 -1.4960907200477652e+011 -1.2757909258570992e+010 -5.4992267129600887e+009 2.1880295955075308e+003 -2.7329340722039393e+004 -1.1848241793164287e+004
5.1635500000000000e+004 -1.4720621998086606e+011 -2.9161995354309689e+010 -1.2610760038381506e+010 5.7487463535271345e+003 -2.6850291802443993e+004 -1.1640230652526559e+004
5.1639500000000000e+004 -1.4487297850021487e+011 -3.8366511207016106e+010 -1.6601271464502283e+010 7.7475509522642460e+003 -2.6394183482574077e+004 -1.1443400235248699e+004
5.1643500000000000e+004 -1.4185659402019489e+011 -4.7390403548324181e+010 -2.0513842967540318e+010 9.6988418989445472e+003 -2.5806125818268534e+004 -1.1189492729415493e+004
5.1647500000000000e+004 -1.3817646999339471e+011 -5.6189841216450569e+010 -2.4329334404784286e+010 1.1586976300053771e+004 -2.5097751325047462e+004 -1.0882560589241362e+004
5.1651500000000000e+004 -1.3385543836829184e+011 -6.4725649093079491e+010 -2.8030412877014549e+010 1.3407911314400344e+004 -2.4282115583023933e+004 -1.0528162406123316e+004
5.1655500000000000e+004 -1.2891649725908447e+011 -7.2961908941278549e+010 -3.1601289735356033e+010 1.5162913253514162e+004 -2.3364441776867658e+004 -1.0129306984894723e+004
5.1659500000000000e+004 -1.2338269761474023e+011 -8.0863330743722549e+010 -3.5026724408379951e+010 1.6849475309903206e+004 -2.2344191614689389e+004 -9.6864781143068267e+003
5.1665500000000000e+004 -1.1402172306570619e+011 -9.2009770980724808e+010 -3.9858940557843330e+010 1.9234210495015828e+004 -2.0620404602630737e+004 -8.9398791612338755e+003
5.1669500000000000e+004 -1.0711648760879384e+011 -9.8918482334047607e+010 -4.2854375997546844e+010 2.0709540502677799e+004 -1.9344213403310318e+004 -8.3877197789808215e+003
5.1673500000000000e+004 -9.9719993019914917e+010 -1.0537007634322583e+011 -4.5651939663966835e+010 2.2075101921585825e+004 -1.7977909346313179e+004 -7.7958484447505380e+003
5.1677500000000000e+004 -9.1871376298624344e+010 -1.1133647285611177e+011 -4.8239120982497528e+010 2.3326391813773764e+004 -1.6538853286491463e+004 -7.1713538157552030e+003
5.1681500000000000e+004 -8.3609453679836487e+010 -1.1679452445814966e+011 -5.0605603814405487e+010 2.4467654781589972e+004 -1.5036993323227216e+004 -6.5191903357095325e+003
5.1685500000000000e+004 -7.4971733077295853e+010 -1.2172314345191315e+011 -5.2742235286325508e+010 2.5501100739741622e+004 -1.3475198778241427e+004 -5.8413844225155935e+003
5.1689500000000000e+004 -6.5995803900112167e+010 -1.2610180305755327e+011 -5.4640318511999542e+010 2.6424104704285277e+004 -1.1854606271423594e+004 -5.1388443266905315e+003
5.1696500000000000e+004 -4.9593361188471207e+010 -1.3238150451387318e+011 -5.7362909906259857e+010 2.7752794950586074e+004 -8.8843962057004082e+003 -3.8528370123419149e+003
5.1700500000000000e+004 -3.9898415861575851e+010 -1.3514869964959576e+011 -5.8563108793283257e+010 2.8328654650688975e+004 -7.1238638064034167e+003 -3.0901381363295623e+003
5.1704500000000000e+004 -3.0028702892115414e+010 -1.3730281672253502e+011 -5.9497500554086151e+010 2.8765142203807300e+004 -5.3394625052812571e+003 -2.3159227801342631e+003
5.1708500000000000e+004 -2.0031023098581242e+010 -1.3883795911478015e+011 -6.0163223284449753e+010 2.9070620013501695e+004 -3.5428455591033917e+003 -1.5359362160254707e+003
5.1712500000000000e+004 -9.9494837678679581e+009 -1.3975064684239319e+011 -6.0558752689202095e+010 2.9250996444149754e+004 -1.7376372814835779e+003 -7.5255823149760397e+002
5.1716500000000000e+004 1.7300203909608349e+008 -1.4003823433962698e+011 -6.0683142739075020e+010 2.9307436845514687e+004 7.4308514279526861e+001 3.2979972237281601e+001
5.1720500000000000e+004 1.0293265282724682e+010 -1.3969879697928967e+011 -6.0535837170598541e+010 2.9237457131222942e+004 1.8904365197591117e+003 8.1954882123277150e+002
5.1726500000000000e+004 2.5371148616451035e+010 -1.3801298844892490e+011 -5.9805415240853859e+010 2.8881091120559300e+004 4.6104022648227847e+003 1.9972791699162810e+003
5.1730500000000000e+004 3.5284873098302025e+010 -1.3610953041682666e+011 -5.8980706879645866e+010 2.8466764487874218e+004 6.3994862343182203e+003 2.7731722011493148e+003
5.1734500000000000e+004 4.5032145513537949e+010 -1.3359417376064214e+011 -5.7890457453368225e+010 2.7920176041715233e+004 8.1499175353705077e+003 3.5331290668167685e+003
5.1738500000000000e+004 5.4569411746659401e+010 -1.3048130360905418e+011 -5.6540792594060677e+010 2.7252826056922582e+004 9.8570346160083063e+003 4.2741655381983483e+003
5.1742500000000000e+004 6.3856062720978340e+010 -1.2678614018365462e+011 -5.4938466939131180e+010 2.6470463458372025e+004 1.1519451299850369e+004 4.9951361165382459e+003
5.1746500000000000e+004 7.2852779872238678e+010 -1.2252438780114240e+011 -5.3090561243659920e+010 2.5574996545813166e+004 1.3135558729315966e+004 5.6952073281841867e+003
5.1750500000000000e+004 8.1520303587117111e+010 -1.1771253482010623e+011 -5.1004469459964149e+010 2.4564855268944095e+004 1.4702112686345259e+004 6.3732776906768750e+003
5.1757500000000000e+004 9.5774147133684601e+010 -1.0802549166052962e+011 -4.6805503938093483e+010 2.2509545735355168e+004 1.7295019088045621e+004 7.4968501258645574e+003
5.1761500000000000e+004 1.0332667354162964e+011 -1.0180917524528648e+011 -4.4110736627909904e+010 2.1180484096806635e+004 1.8664017573791742e+004 8.0914255420821601e+003
5.1765500000000000e+004 1.1040335664919586e+011 -9.5135322652419571e+010 -4.1217232527040939e+010 1.9757887900545204e+004 1.9942830673726763e+004 8.6468124408796775e+003
5.1769500000000000e+004 1.1697361699999083e+011 -8.8035019854284729e+010 -3.8138617392207726e+010 1.8250909858781408e+004 2.1131957989069666e+004 9.1626400512789460e+003
5.1773500000000000e+004 1.2300926658651517e+011 -8.0539231060200317e+010 -3.4888585388310005e+010 1.6664648088851241e+004 2.2231490483823796e+004 9.6388016081558544e+003
5.1777500000000000e+004 1.2848327315952736e+011 -7.2679066007543976e+010 -3.1480872364115326e+010 1.5000597321096828e+004 2.3240135763199480e+004 1.0075030273584069e+004
5.1781500000000000e+004 1.3336856505596774e+011 -6.4486772842947182e+010 -2.7929517582588860e+010 1.3257504389437785e+004 2.4151933302663838e+004 1.0469533938463794e+004
5.1788500000000000e+004 1.4042099995390298e+011 -4.9460994811444817e+010 -2.1415831795448818e+010 1.0031328033858546e+004 2.5474193242579455e+004 1.1043893616266578e+004
5.1792500000000000e+004 1.4355801219223349e+011 -4.0552379047509033e+010 -1.7553471006515339e+010 8.1160530752017339e+003 2.6059867777522944e+004 1.1298796818525578e+004
5.1796500000000000e+004 1.4602680821336136e+011 -3.1462319588236092e+010 -1.3612210720402279e+010 6.1658579897375221e+003 2.6524783742018415e+004 1.1500678712459248e+004
5.1800500000000000e+004 1.4781671352525946e+011 -2.2232018384099281e+010 -9.6101801596306953e+009 4.1882963564698430e+003 2.6871898873403588e+004 1.1650674932418047e+004
5.1804500000000000e+004 1.4891908058541730e+011 -1.2901792179144400e+010 -5.5651082141894588e+009 2.1873401683318866e+003 2.7103151661944241e+004 1.1749894231394594e+004
5.1808500000000000e+004 1.4932597808302444e+011 -3.5119445980502129e+009 -1.4945325190463445e+009 1.6370938696194963e+002 2.7215861806090015e+004 1.1797961848237757e+004
5.1812500000000000e+004 1.4903006934865897e+011 5.8950528305878525e+009 2.5833658122839584e+009 -1.8782984516124898e+003 2.7200425058569421e+004 1.1791488606337902e+004
5.1818500000000000e+004 1.4726140990694571e+011 1.9936324845631226e+010 8.6707043538711720e+009 -4.9405289740171629e+003 2.6919511155478616e+004 1.1671250447689474e+004
5.1822500000000000e+004 1.4520499463020654e+011 2.9182196790560966e+010 1.2679468803961699e+010 -6.9550245685953241e+003 2.6565277240763724e+004 1.1518206036472615e+004
5.1826500000000000e+004 1.4245803035961798e+011 3.8283832580844131e+010 1.6625746288193336e+010 -8.9354581969851661e+003 2.6085912873581172e+004 1.1310106846047727e+004
5.1830500000000000e+004 1.3903346353052417e+011 4.7199101785295769e+010 2.0491005141863789e+010 -1.0875638620292513e+004 2.5487760317039316e+004 1.1049836557408791e+004
5.1834500000000000e+004 1.3494563517802748e+011 5.5887744777237862e+010 2.4257655144629166e+010 -1.2773774322768189e+004 2.4774467106590982e+004 1.0739632293501112e+004
5.1838500000000000e+004 1.3020929137206544e+011 6.4309509462400139e+010 2.7908402576735786e+010 -1.4627578994594969e+004 2.3942112731750880e+004 1.0378687421400158e+004
5.1842500000000000e+004 1.2484152641634274e+011 7.2422056971656036e+010 3.1425243034358105e+010 -1.6424909969688069e+004 2.2984422556433936e+004 9.9643671263533324e+003
5.1849500000000000e+004 1.1400067043140730e+011 8.5746005639039719e+010 3.7202022177719109e+010 -1.9378913810361759e+004 2.1017920937565577e+004 9.1131474880270180e+003
5.1853500000000000e+004 1.0703128230300584e+011 9.2793053542885071e+010 4.0257535211032112e+010 -2.0936491575394462e+004 1.9747185475592029e+004 8.5619665182994959e+003
5.1857500000000000e+004 9.9541155648736847e+010 9.9384506164933411e+010 4.3115311308432228e+010 -2.2391891769449758e+004 1.8383078459612945e+004 7.9696268874024508e+003
5.1861500000000000e+004 9.1565864098713486e+010 1.0548971318611133e+011 4.5761914547411079e+010 -2.3744501648827383e+004 1.6934251487634618e+004 7.3404846703863595e+003
5.1865500000000000e+004 8.3140641233177490e+010 1.1107982278820496e+011 4.8184983566700920e+010 -2.4995217741501951e+004 1.5401576451266123e+004 6.6758878425225084e+003
5.1869500000000000e+004 7.4301957445664734e+010 1.1612525604830547e+011 5.0372059979148003e+010 -2.6134685202640860e+004 1.3782237453277605e+004 5.9747136878986421e+003
5.1873500000000000e+004 6.5091048044585854e+010 1.2059675320283101e+011 5.2310666704874016e+010 -2.7146712800242229e+004 1.2082000183167982e+004 5.2386076886234150e+003
5.1879500000000000e+004 5.0678990998582275e+010 1.2617302339756564e+011 5.4728651587891144e+010 -2.8401388776872278e+004 9.4105552135451035e+003 4.0806906647084293e+003
5.1883500000000000e+004 4.0746041751466232e+010 1.2910844141223970e+011 5.6001443850437965e+010 -2.9056756346672286e+004 7.5704368518209858e+003 3.2821353187820882e+003
5.1887500000000000e+004 3.0611528150098724e+010 1.3140201213634549e+011 5.6995619493413315e+010 -2.9568520764234228e+004 5.6980920464450401e+003 2.4692733753981738e+003
5.1891500000000000e+004 2.0324106085717560e+010 1.3304417387624466e+011 5.7707067247809219e+010 -2.9942729276479640e+004 3.8011007549557021e+003 1.6463333975370667e+003
5.1895500000000000e+004 9.9308621546578121e+009 1.3402634035835303e+011 5.8132411858208084e+010 -3.0179695495640124e+004 1.8784211076974482e+003 8.1344522092690011e+002
5.1899500000000000e+004 -5.1898231933914411e+008 1.3434005381659633e+011 5.8268292645672241e+010 -3.0268249300453474e+004 -6.5466323186813028e+001 -2.8206375414901352e+001
5.1903500000000000e+004 -1.0972417639373291e+010 1.3398028210874823e+011 5.8112509240980888e+010 -3.0199640455452503e+004 -2.0163084885410699e+003 -8.7334046482141832e+002
5.1910500000000000e+004 -2.9110038571979706e+010 1.3173470896432841e+011 5.7139318987115936e+010 -2.9699884919048094e+004 -5.3977351105750322e+003 -2.3401456161165102e+003
5.1914500000000000e+004 -3.9293242151334045e+010 1.2954163524476265e+011 5.6188337912712196e+010 -2.9206591019121272e+004 -7.2869365810943546e+003 -3.1603075422118882e+003
5.1918500000000000e+004 -4.9281695291867844e+010 1.2670303793779727e+011 5.4957161720778885e+010 -2.8574937280286817e+004 -9.1326279119940264e+003 -3.9611301707465395e+003
5.1922500000000000e+004 -5.9029318855376976e+010 1.2323412121516780e+011 5.3452704605434166e+010 -2.7813095169499524e+004 -1.0935195273421808e+004 -4.7420234105577329e+003
5.1926500000000000e+004 -6.8490495404187233e+010 1.1914976436880824e+011 5.1681764071899490e+010 -2.6915892798493049e+004 -1.2692703028469556e+004 -5.5028336208855526e+003
5.1930500000000000e+004 -7.7617479888671082e+010 1.1446765537225392e+011 4.9652008622155708e+010 -2.5879186350371470e+004 -1.4391781353917137e+004 -6.2387675175418608e+003
5.1934500000000000e+004 -8.6362546334187698e+010 1.0921066514685994e+011 4.7373116976373360e+010 -2.4706853699868596e+004 -1.6017139404546817e+004 -6.9435600526998633e+003
5.1941500000000000e+004 -1.0061286247989902e+011 9.8713760820004547e+010 4.2822142935860588e+010 -2.2358183506767327e+004 -1.8645725201781079e+004 -8.0848168482912151e+003
5.1945500000000000e+004 -1.0808543783305717e+011 9.2031074305857208e+010 3.9924388285940498e+010 -2.0870210791160920e+004 -2.0010114619431017e+004 -8.6770344329205436e+003
5.1949500000000000e+004 -1.1502823273982286e+011 8.4894302978990677e+010 3.6829717076161026e+010 -1.9293809928155526e+004 -2.1274545664120611e+004 -9.2247533734487733e+003
5.1953500000000000e+004 -1.2141125595655507e+011 7.7337187353601257e+010 3.3553124970814251e+010 -1.7629987959707505e+004 -2.2442191157770674e+004 -9.7298163454177538e+003
5.1957500000000000e+004 -1.2720376646249384e+011 6.9394450791398254e+010 3.0109699856737122e+010 -1.5877018524419327e+004 -2.3503998586768448e+004 -1.0189421171519140e+004
5.1961500000000000e+004 -1.3237600682682896e+011 6.1104812734984047e+010 2.6515992979567451e+010 -1.4042195348983571e+004 -2.4447943025833840e+004 -1.0598743342683509e+004
5.1965500000000000e+004 -1.3690169036885226e+011 5.2510697125734367e+010 2.2790123464559856e+010 -1.2137685200954527e+004 -2.5264688330689143e+004 -1.0953624636194363e+004
5.1969500000000000e+004 -1.4075932689950797e+011 4.3657235352933029e+010 1.8951486042730888e+010 -1.0179016800230980e+004 -2.5948149844231670e+004 -1.1250948859530132e+004
5.1973500000000000e+004 -1.4393321574192642e+011 3.4590792361537735e+010 1.5020231001421913e+010 -8.1837233689598497e+003 -2.6497721256535926e+004 -1.1489685781634893e+004
5.1977500000000000e+004 -1.4641337564469092e+011 2.5356649469085747e+010 1.1016296730346285e+010 -6.1658410632859295e+003 -2.6920286028502789e+004 -1.1672239090042454e+004
5.1981500000000000e+004 -1.4819265381549881e+011 1.5997297307635208e+010 6.9584257137909527e+009 -4.1271526846330244e+003 -2.7222420749807574e+004 -1.1802073708016640e+004
5.1985500000000000e+004 -1.4926362389544052e+011 6.5549931908570213e+009 2.8649114683759265e+009 -2.0676878517383648e+003 -2.7398858417683648e+004 -1.1877983150308261e+004
5.1989500000000000e+004 -1.4962049836129663e+011 -2.9254379469301004e+009 -1.2450762672008355e+009 3.3270672084756363e+000 -2.7442126023994773e+004 -1.1896990866450140e+004
5.1993500000000000e+004 -1.4926152048294849e+011 -1.2397178298252947e+010 -5.3515001674529114e+009 2.0725382919662011e+003 -2.7348105497366036e+004 -1.1857098504860556e+004
5.2000500000000000e+004 -1.4692411291711548e+011 -2.8808687490249084e+010 -1.2467366744563751e+010 5.6401407113467303e+003 -2.6854572154598329e+004 -1.1644324773520844e+004
5.2004500000000000e+004 -1.4463096407897171e+011 -3.8014184866894897e+010 -1.6458864747345894e+010 7.6224648824035694e+003 -2.6398455208212723e+004 -1.1445983012412531e+004
5.2008500000000000e+004 -1.4166084577768436e+011 -4.7042356724857590e+010 -2.0373151577466209e+010 9.5582857890091618e+003 -2.5829515306779685e+004 -1.1198171332885917e+004
5.2012500000000000e+004 -1.3802936976975113e+011 -5.5854630233654594e+010 -2.4193505917016003e+010 1.1449492537527571e+004 -2.5148325012327743e+004 -1.0902218329619755e+004
5.2016500000000000e+004 -1.3375283022667516e+011 -6.4411471498091347e+010 -2.7903053825503830e+010 1.3289581624920844e+004 -2.4350909736743779e+004 -1.0556742482499836e+004
5.2020500000000000e+004 -1.2885081469426978e+011 -7.2672512345492950e+010 -3.1484561815052139e+010 1.5067076415269577e+004 -2.3436669369467319e+004 -1.0161250590987727e+004
5.2024500000000000e+004 -1.2334724836062564e+011 -8.0597704128588303e+010 -3.4920801880862610e+010 1.6768251253893610e+004 -2.2408112409400466e+004 -9.7162836093811693e+003
