# SPICE DE405 data for URANUS BARYCENTER from SOLAR SYSTEM BARYCENTER 
# For the period 2000-1-1-12:00:00 to 2009-12-25-12:00:00
# 7 items per row: time (TT, mjd), XYZ position (m), XYZ velocity (m/s)
# For use with JAT: jat.eph.unittest.DE405Test.readTargetPosVels().
# NOTE: The majority of the JAT-SPICE DE405 differences in this data
#       are due to an unexplained -80 microsec (-8.046852e-5 sec) time difference
#       between JAT and SPICE.  When this difference is artifically compensated for,
#       the position results millimeters or less (at numerical limits) for all bodies.
5.1544500000000000e+004 2.1579078669417444e+012 -1.8713058183312434e+012 -8.5010563704073706e+011 4.6463354669283135e+003 4.2511545792317393e+003 1.7961737893541926e+003
5.1548500000000000e+004 2.1595129936116968e+012 -1.8698360587471089e+012 -8.4948462471264465e+011 4.6425915938480593e+003 4.2543981080152325e+003 1.7976473576240737e+003
5.1552500000000000e+004 2.1611168259585715e+012 -1.8683651786759478e+012 -8.4886310332182019e+011 4.6388451706410960e+003 4.2576388779430299e+003 1.7991197537185192e+003
5.1556500000000000e+004 2.1627193631012517e+012 -1.8668931790716184e+012 -8.4824107327354480e+011 4.6350961995864063e+003 4.2608768877019902e+003 1.8005909770296314e+003
5.1560500000000000e+004 2.1643206041595950e+012 -1.8654200608882617e+012 -8.4761853497323730e+011 4.6313446829634277e+003 4.2641121359807776e+003 1.8020610269502870e+003
5.1564500000000000e+004 2.1659205482542471e+012 -1.8639458250804724e+012 -8.4699548882652612e+011 4.6275906230524888e+003 4.2673446214695005e+003 1.8035299028739626e+003
5.1568500000000000e+004 2.1675191945064563e+012 -1.8624704726034683e+012 -8.4637193523932214e+011 4.6238340221352228e+003 4.2705743428593487e+003 1.8049976041945740e+003
5.1575500000000000e+004 2.1703136998754238e+012 -1.8598859216569558e+012 -8.4527949665417822e+011 4.6172538630969957e+003 4.2762197002494895e+003 1.8075632532972372e+003
5.1579500000000000e+004 2.1719087725377578e+012 -1.8584075032672842e+012 -8.4465454969973022e+011 4.6134902861816690e+003 4.2794418136333225e+003 1.8090277213403904e+003
5.1583500000000000e+004 2.1735025440704226e+012 -1.8569279717934993e+012 -8.4402909682839917e+011 4.6097241768221584e+003 4.2826611580253266e+003 1.8104910125139643e+003
5.1587500000000000e+004 2.1750950135982305e+012 -1.8554473281931335e+012 -8.4340313844716138e+011 4.6059555373053654e+003 4.2858777321231755e+003 1.8119531262145347e+003
5.1591500000000000e+004 2.1766861802473389e+012 -1.8539655734236536e+012 -8.4277667496298242e+011 4.6021843699181190e+003 4.2890915346269976e+003 1.8134140618397457e+003
5.1595500000000000e+004 2.1782760431445117e+012 -1.8524827084431465e+012 -8.4214970678310937e+011 4.5984106769489335e+003 4.2923025642378707e+003 1.8148738187876265e+003
5.1599500000000000e+004 2.1798646014173025e+012 -1.8509987342101484e+012 -8.4152223431499719e+011 4.5946344606875682e+003 4.2955108196581987e+003 1.8163323964567651e+003
5.1604500000000000e+004 2.1818484633023286e+012 -1.8491422079936672e+012 -8.4073718519562549e+011 4.5899106454722105e+003 4.2995172357520469e+003 1.8181539592665899e+003
5.1608500000000000e+004 2.1834340829844841e+012 -1.8476557414495337e+012 -8.4010857956980786e+011 4.5861287601824397e+003 4.3027192445028159e+003 1.8196098813612682e+003
5.1612500000000000e+004 2.1850183952120952e+012 -1.8461681687714194e+012 -8.3947947098148682e+011 4.5823443590512634e+003 4.3059184748509961e+003 1.8210646222248997e+003
5.1616500000000000e+004 2.1866013991162686e+012 -1.8446794909195913e+012 -8.3884985983892627e+011 4.5785574443726828e+003 4.3091149255032587e+003 1.8225181812579326e+003
5.1620500000000000e+004 2.1881830938287183e+012 -1.8431897088549346e+012 -8.3821974655067065e+011 4.5747680184419714e+003 4.3123085951669646e+003 1.8239705578611045e+003
5.1624500000000000e+004 2.1897634784819517e+012 -1.8416988235387832e+012 -8.3758913152547083e+011 4.5709760835552388e+003 4.3154994825505346e+003 1.8254217514356121e+003
5.1628500000000000e+004 2.1913425522090884e+012 -1.8402068359330898e+012 -8.3695801517235876e+011 4.5671816420098730e+003 4.3186875863630821e+003 1.8268717613829419e+003
5.1635500000000000e+004 2.1941027742122507e+012 -1.8375932081327664e+012 -8.3585235646468066e+011 4.5605353445680976e+003 4.3242600661907727e+003 1.8294064288904233e+003
5.1639500000000000e+004 2.1956782384306941e+012 -1.8360981941931655e+012 -8.3521986356998486e+011 4.5567340215595505e+003 4.3274405085390317e+003 1.8308531807822837e+003
5.1643500000000000e+004 2.1972523884801785e+012 -1.8346020815744878e+012 -8.3458687088273584e+011 4.5529302005113241e+003 4.3306181624874089e+003 1.8322987468078015e+003
5.1647500000000000e+004 2.1988252234975952e+012 -1.8331048712408003e+012 -8.3395337881294556e+011 4.5491238837236797e+003 4.3337930267507090e+003 1.8337431263709477e+003
5.1651500000000000e+004 2.2003967426211812e+012 -1.8316065641560916e+012 -8.3331938777061096e+011 4.5453150734960273e+003 4.3369651000463145e+003 1.8351863188768255e+003
5.1655500000000000e+004 2.2019669449892339e+012 -1.8301071612854900e+012 -8.3268489816622937e+011 4.5415037721300314e+003 4.3401343810915932e+003 1.8366283237304917e+003
5.1659500000000000e+004 2.2035358297413975e+012 -1.8286066635940449e+012 -8.3204991041028210e+011 4.5376899819265036e+003 4.3433008686064813e+003 1.8380691403381354e+003
5.1665500000000000e+004 2.2058866844592856e+012 -1.8263538663803958e+012 -8.3109649564080737e+011 4.5319646350862013e+003 4.3480453592120193e+003 1.8402281359905121e+003
5.1669500000000000e+004 2.2074522714120840e+012 -1.8248506358625916e+012 -8.3046026430347119e+011 4.5281446328601087e+003 4.3512048573095108e+003 1.8416659793888496e+003
5.1673500000000000e+004 2.2090165377433687e+012 -1.8233463139057029e+012 -8.2982353625312671e+011 4.5243221498549710e+003 4.3543615574081869e+003 1.8431026324677196e+003
5.1677500000000000e+004 2.2105794825959980e+012 -1.8218409014771128e+012 -8.2918631190132483e+011 4.5204971883752241e+003 4.3575154582352006e+003 1.8445380946362975e+003
5.1681500000000000e+004 2.2121411051139912e+012 -1.8203343995442944e+012 -8.2854859165967175e+011 4.5166697507256449e+003 4.3606665585198562e+003 1.8459723653046972e+003
5.1685500000000000e+004 2.2137014044419834e+012 -1.8188268090753342e+012 -8.2791037594005200e+011 4.5128398392126765e+003 4.3638148569925133e+003 1.8474054438834680e+003
5.1689500000000000e+004 2.2152603797254058e+012 -1.8173181310387583e+012 -8.2727166515455347e+011 4.5090074561439951e+003 4.3669603523849473e+003 1.8488373297837632e+003
5.1696500000000000e+004 2.2179853979215254e+012 -1.8146753304299690e+012 -8.2615273126790686e+011 4.5022948455385304e+003 4.3724582206002178e+003 1.8513402584576261e+003
5.1700500000000000e+004 2.2195407276825264e+012 -1.8131636665799822e+012 -8.2551266117772998e+011 4.4984556776006903e+003 4.3755960009936489e+003 1.8527688614604829e+003
5.1704500000000000e+004 2.2210947302012534e+012 -1.8116509187984241e+012 -8.2487209756888867e+011 4.4946140467724326e+003 4.3787309735619792e+003 1.8541962695812929e+003
5.1708500000000000e+004 2.2226474046272925e+012 -1.8101370880555439e+012 -8.2423104085428625e+011 4.4907699553665889e+003 4.3818631370436997e+003 1.8556224822340396e+003
5.1712500000000000e+004 2.2241987501103076e+012 -1.8086221753227332e+012 -8.2358949144732727e+011 4.4869234056991581e+003 4.3849924901767245e+003 1.8570474988324188e+003
5.1716500000000000e+004 2.2257487658014839e+012 -1.8071061815711130e+012 -8.2294744976131970e+011 4.4830744000857185e+003 4.3881190317013134e+003 1.8584713187911630e+003
5.1720500000000000e+004 2.2272974508520874e+012 -1.8055891077729463e+012 -8.2230491621007300e+011 4.4792229408450157e+003 4.3912427603571532e+003 1.8598939415247171e+003
5.1726500000000000e+004 2.2296179816234985e+012 -1.8033114741151257e+012 -8.2134019454108044e+011 4.4734411565054634e+003 4.3959230764597169e+003 1.8620256295489551e+003
5.1730500000000000e+004 2.2311633363667407e+012 -1.8017917044551113e+012 -8.2069643313763745e+011 4.4695835733450904e+003 4.3990397674394426e+003 1.8634452566619398e+003
5.1734500000000000e+004 2.2327073575065933e+012 -1.8002708581534829e+012 -8.2005218131828149e+011 4.4657235446796494e+003 4.4021536411484794e+003 1.8648636845042786e+003
5.1738500000000000e+004 2.2342500441982910e+012 -1.7987489361841064e+012 -8.1940743949758154e+011 4.4618610728327931e+003 4.4052646963304333e+003 1.8662809124921203e+003
5.1742500000000000e+004 2.2357913955980513e+012 -1.7972259395211042e+012 -8.1876220809023291e+011 4.4579961601285586e+003 4.4083729317299121e+003 1.8676969400420601e+003
5.1746500000000000e+004 2.2373314108623560e+012 -1.7957018691395652e+012 -8.1811648751135791e+011 4.4541288088929841e+003 4.4114783460912477e+003 1.8691117665705347e+003
5.1750500000000000e+004 2.2388700891490317e+012 -1.7941767260144792e+012 -8.1747027817605530e+011 4.4502590214514203e+003 4.4145809381606623e+003 1.8705253914948150e+003
5.1757500000000000e+004 2.2415595565177417e+012 -1.7915051471908643e+012 -8.1633823701851147e+011 4.4434810383053637e+003 4.4200036793732943e+003 1.8729963420003880e+003
5.1761500000000000e+004 2.2430945537792856e+012 -1.7899770590525891e+012 -8.1569068574534033e+011 4.4396045632945143e+003 4.4230985036802740e+003 1.8744066595105496e+003
5.1765500000000000e+004 2.2446282109113521e+012 -1.7884479018316794e+012 -8.1504264727451111e+011 4.4357256608047164e+003 4.4261905010002565e+003 1.8758157732339673e+003
5.1769500000000000e+004 2.2461605270757637e+012 -1.7869176765050007e+012 -8.1439412202200146e+011 4.4318443331635208e+003 4.4292796700845702e+003 1.8772236825900732e+003
5.1773500000000000e+004 2.2476915014346123e+012 -1.7853863840503862e+012 -8.1374511040421692e+011 4.4279605827003634e+003 4.4323660096845178e+003 1.8786303869982676e+003
5.1777500000000000e+004 2.2492211331509727e+012 -1.7838540254459204e+012 -8.1309561283768750e+011 4.4240744117446193e+003 4.4354495185529940e+003 1.8800358858786362e+003
5.1781500000000000e+004 2.2507494213887256e+012 -1.7823206016701201e+012 -8.1244562973914368e+011 4.4201858226260492e+003 4.4385301954441211e+003 1.8814401786517922e+003
5.1788500000000000e+004 2.2534206905474678e+012 -1.7796345499385850e+012 -8.1130699225940698e+011 4.4133749799728985e+003 4.4439145618153398e+003 1.8838947870685920e+003
5.1792500000000000e+004 2.2549452799145596e+012 -1.7780982019904204e+012 -8.1065567609814832e+011 4.4094797529220759e+003 4.4469874443552180e+003 1.8852957600638981e+003
5.1796500000000000e+004 2.2564685226745903e+012 -1.7765607925443645e+012 -8.1000387596947168e+011 4.4055821164488971e+003 4.4500574902571379e+003 1.8866955247840879e+003
5.1800500000000000e+004 2.2579904179956201e+012 -1.7750223225806150e+012 -8.0935159229090503e+011 4.4016820728843595e+003 4.4531246982824514e+003 1.8880940806528488e+003
5.1804500000000000e+004 2.2595109650459854e+012 -1.7734827930803359e+012 -8.0869882548040247e+011 4.3977796245612662e+003 4.4561890671931778e+003 1.8894914270941042e+003
5.1808500000000000e+004 2.2610301629950039e+012 -1.7719422050249380e+012 -8.0804557595604199e+011 4.3938747738129050e+003 4.4592505957530066e+003 1.8908875635325091e+003
5.1812500000000000e+004 2.2625480110129771e+012 -1.7704005593960815e+012 -8.0739184413602344e+011 4.3899675229730356e+003 4.4623092827273013e+003 1.8922824893934480e+003
5.1818500000000000e+004 2.2648222501053550e+012 -1.7680861101518979e+012 -8.0641034301732373e+011 4.3841021516513447e+003 4.4668919825165303e+003 1.8943726070957096e+003
5.1822500000000000e+004 2.2663367196698682e+012 -1.7665418248881841e+012 -8.0575540728961194e+011 4.3801889108021342e+003 4.4699435601316309e+003 1.8957645040016459e+003
5.1826500000000000e+004 2.2678498364049531e+012 -1.7649964854909822e+012 -8.0509999073184766e+011 4.3762732780391589e+003 4.4729922918484554e+003 1.8971551883225966e+003
5.1830500000000000e+004 2.2693615994845454e+012 -1.7634500929438674e+012 -8.0444409376312268e+011 4.3723552557007115e+003 4.4760381764376516e+003 1.8985446594862506e+003
5.1834500000000000e+004 2.2708720080828599e+012 -1.7619026482313792e+012 -8.0378771680295593e+011 4.3684348461275022e+003 4.4790812126698484e+003 1.8999329169202672e+003
5.1838500000000000e+004 2.2723810613756240e+012 -1.7603541523377620e+012 -8.0313086027075842e+011 4.3645120516593342e+003 4.4821213993180118e+003 1.9013199600533574e+003
5.1842500000000000e+004 2.2738887585388481e+012 -1.7588046062482234e+012 -8.0247352458636743e+011 4.3605868746381948e+003 4.4851587351550561e+003 1.9027057883141856e+003
5.1849500000000000e+004 2.2765239629128350e+012 -1.7560903765218455e+012 -8.0132203544196643e+011 4.3537120888787858e+003 4.4904672094195703e+003 1.9051280627678746e+003
5.1853500000000000e+004 2.2780279264786338e+012 -1.7545379474760359e+012 -8.0066338425504761e+011 4.3497803719171288e+003 4.4934966992089894e+003 1.9065105471884417e+003
5.1857500000000000e+004 2.2795305308327964e+012 -1.7529844719319331e+012 -8.0000425549179590e+011 4.3458462811904919e+003 4.4965233335960311e+003 1.9078918145987327e+003
5.1861500000000000e+004 2.2810317751555293e+012 -1.7514299508763948e+012 -7.9934464957283167e+011 4.3419098190438463e+003 4.4995471113592730e+003 1.9092718644298989e+003
5.1865500000000000e+004 2.2825316586275010e+012 -1.7498743852970615e+012 -7.9868456691912537e+011 4.3379709878239128e+003 4.5025680312771256e+003 1.9106506961130281e+003
5.1869500000000000e+004 2.2840301804303647e+012 -1.7483177761818157e+012 -7.9802400795176697e+011 4.3340297898774716e+003 4.5055860921292524e+003 1.9120283090797659e+003
5.1873500000000000e+004 2.2855273397465854e+012 -1.7467601245189614e+012 -7.9736297309204333e+011 4.3300862275517375e+003 4.5086012926965368e+003 1.9134047027622744e+003
5.1879500000000000e+004 2.2877705222722734e+012 -1.7444216944106829e+012 -7.9637052942624219e+011 4.3241664559870942e+003 4.5131187278499383e+003 1.9154670058873917e+003
5.1883500000000000e+004 2.2892642718004946e+012 -1.7428614407053987e+012 -7.9570830668002026e+011 4.3202169929850288e+003 4.5161267723795327e+003 1.9168403488784245e+003
5.1887500000000000e+004 2.2907566559872637e+012 -1.7413001479147009e+012 -7.9504560951740186e+011 4.3162651738218719e+003 4.5191319523673828e+003 1.9182124706020211e+003
5.1891500000000000e+004 2.2922476740183496e+012 -1.7397378170291484e+012 -7.9438243836070935e+011 4.3123110008478779e+003 4.5221342665996162e+003 1.9195833704925187e+003
5.1895500000000000e+004 2.2937373250810288e+012 -1.7381744490389922e+012 -7.9371879363215137e+011 4.3083544764122826e+003 4.5251337138648914e+003 1.9209530479853690e+003
5.1899500000000000e+004 2.2952256083628682e+012 -1.7366100449354468e+012 -7.9305467575436340e+011 4.3043956028661933e+003 4.5281302929523927e+003 1.9223215025162096e+003
5.1903500000000000e+004 2.2967125230522495e+012 -1.7350446057101460e+012 -7.9239008515017566e+011 4.3004343825616634e+003 4.5311240026525375e+003 1.9236887335211916e+003
5.1910500000000000e+004 2.2993113281459639e+012 -1.7323025992870249e+012 -7.9122591536690356e+011 4.2934966072160387e+003 4.5363560865328500e+003 1.9260784419777358e+003
5.1914500000000000e+004 2.3007944750293501e+012 -1.7307343185917922e+012 -7.9056002694623645e+011 4.2895289454573458e+003 4.5393418991935159e+003 1.9274423053847315e+003
5.1918500000000000e+004 2.3022762502847695e+012 -1.7291650064962812e+012 -7.8989366738614941e+011 4.2855589457668075e+003 4.5423248379429924e+003 1.9288049431566119e+003
5.1922500000000000e+004 2.3037566531046406e+012 -1.7275946639939229e+012 -7.8922683711031897e+011 4.2815866105006698e+003 4.5453049015774550e+003 1.9301663547319677e+003
5.1926500000000000e+004 2.3052356826821948e+012 -1.7260232920785654e+012 -7.8855953654261523e+011 4.2776119420163932e+003 4.5482820888936640e+003 1.9315265395496592e+003
5.1930500000000000e+004 2.3067133382113081e+012 -1.7244508917446550e+012 -7.8789176610718079e+011 4.2736349426725965e+003 4.5512563986893701e+003 1.9328854970489158e+003
5.1934500000000000e+004 2.3081896188871860e+012 -1.7228774639865044e+012 -7.8722352622811780e+011 4.2696556148274822e+003 4.5542278297642533e+003 1.9342432266698174e+003
5.1941500000000000e+004 2.3107697994101304e+012 -1.7201214961639365e+012 -7.8605297811801318e+011 4.2626861952429254e+003 4.5594209036129978e+003 1.9366162972398997e+003
5.1945500000000000e+004 2.3122422950941377e+012 -1.7185452481220090e+012 -7.8538344945842395e+011 4.2587004761934886e+003 4.5623844120184913e+003 1.9379706473089875e+003
5.1949500000000000e+004 2.3137134129127378e+012 -1.7169679763897617e+012 -7.8471345294797461e+011 4.2547124374989817e+003 4.5653450372065299e+003 1.9393237674019201e+003
5.1953500000000000e+004 2.3151831520648418e+012 -1.7153896819636580e+012 -7.8404298901176318e+011 4.2507220815229211e+003 4.5683027779802533e+003 1.9406756569602755e+003
5.1957500000000000e+004 2.3166515117496636e+012 -1.7138103658411252e+012 -7.8337205807531519e+011 4.2467294106309346e+003 4.5712576331420833e+003 1.9420263154253478e+003
5.1961500000000000e+004 2.3181184911677471e+012 -1.7122300290194546e+012 -7.8270066056411487e+011 4.2427344271878828e+003 4.5742096014962972e+003 1.9433757422392346e+003
5.1965500000000000e+004 2.3195840895201143e+012 -1.7106486724967170e+012 -7.8202879690399536e+011 4.2387371335600465e+003 4.5771586818471687e+003 1.9447239368440232e+003
5.1969500000000000e+004 2.3210483060091147e+012 -1.7090662972708447e+012 -7.8135646752074817e+011 4.2347375321126447e+003 4.5801048730009652e+003 1.9460708986826894e+003
5.1973500000000000e+004 2.3225111398372334e+012 -1.7074829043409189e+012 -7.8068367284067004e+011 4.2307356252130885e+003 4.5830481737635482e+003 1.9474166271980025e+003
5.1977500000000000e+004 2.3239725902084570e+012 -1.7058984947056965e+012 -7.8001041328993677e+011 4.2267314152272529e+003 4.5859885829431087e+003 1.9487611218337790e+003
5.1981500000000000e+004 2.3254326563269062e+012 -1.7043130693650830e+012 -7.7933668929523022e+011 4.2227249045232129e+003 4.5889260993474418e+003 1.9501043820336297e+003
5.1985500000000000e+004 2.3268913373980332e+012 -1.7027266293188430e+012 -7.7866250128318921e+011 4.2187160954679130e+003 4.5918607217863873e+003 1.9514464072420831e+003
5.1989500000000000e+004 2.3283486326277666e+012 -1.7011391755675215e+012 -7.7798784968080103e+011 4.2147049904293590e+003 4.5947924490705736e+003 1.9527871969039945e+003
5.1993500000000000e+004 2.3298045412233628e+012 -1.6995507091115193e+012 -7.7731273491500940e+011 4.2106915917744564e+003 4.5977212800125772e+003 1.9541267504650989e+003
5.2000500000000000e+004 2.3323490422942075e+012 -1.6967684590050574e+012 -7.7613017087350513e+011 4.2036626322382372e+003 4.6028397612675908e+003 1.9564679931629025e+003
5.2004500000000000e+004 2.3338011335626401e+012 -1.6951772127754497e+012 -7.7545378461244971e+011 4.1996429383509767e+003 4.6057606211517350e+003 1.9578041445912845e+003
5.2008500000000000e+004 2.3352518352298257e+012 -1.6935849575980732e+012 -7.7477693679148035e+011 4.1956209597296001e+003 4.6086785802493632e+003 1.9591390578439914e+003
5.2012500000000000e+004 2.3367011465069072e+012 -1.6919916944752734e+012 -7.7409962783844812e+011 4.1915966987420634e+003 4.6115936373794129e+003 1.9604727323695151e+003
5.2016500000000000e+004 2.3381490666051724e+012 -1.6903974244105452e+012 -7.7342185818171021e+011 4.1875701577584032e+003 4.6145057913608825e+003 1.9618051676163402e+003
5.2020500000000000e+004 2.3395955947373984e+012 -1.6888021484070486e+012 -7.7274362824949890e+011 4.1835413391471939e+003 4.6174150410157627e+003 1.9631363630342510e+003
5.2024500000000000e+004 2.3410407301165127e+012 -1.6872058674690950e+012 -7.7206493847055176e+011 4.1795102452792016e+003 4.6203213851661012e+003 1.9644663180730136e+003
5.2030500000000000e+004 2.3432058200543540e+012 -1.6848095640069175e+012 -7.7104604252737903e+011 4.1734593435551460e+003 4.6246754510006176e+003 1.9664589237195507e+003
