# SPICE DE405 data for MERCURY BARYCENTER from SOLAR SYSTEM BARYCENTER 
# For the period 2000-1-1-12:00:00 to 2009-12-25-12:00:00
# 7 items per row: time (TT, mjd), XYZ position (m), XYZ velocity (m/s)
# For use with JAT: jat.eph.unittest.DE405Test.readTargetPosVels().
# NOTE: The majority of the JAT-SPICE DE405 differences in this data
#       are due to an unexplained -80 microsec (-8.046852e-5 sec) time difference
#       between JAT and SPICE.  When this difference is artifically compensated for,
#       the position results millimeters or less (at numerical limits) for all bodies.
5.1544500000000000e+004 -2.0529325063213448e+010 -6.0323956690443954e+010 -3.0130844488333359e+010 3.7004304399381166e+004 -8.5413759868729630e+003 -8.3983731283678189e+003
5.1548500000000000e+004 -7.3879255989717731e+009 -6.1861640725888237e+010 -3.2314483672321125e+010 3.8750864614940700e+004 -3.1551532909011098e+002 -4.1855763495061055e+003
5.1552500000000000e+004 6.0475058596972733e+009 -6.0521638998384834e+010 -3.2991468647082985e+010 3.8691384029609180e+004 8.0869625015350211e+003 3.0887420201347840e+002
5.1556500000000000e+004 1.9133317282914185e+010 -5.6270310536506386e+010 -3.2077074003056313e+010 3.6700012811049884e+004 1.6501583521874229e+004 5.0101751508787484e+003
5.1560500000000000e+004 3.1168559342006596e+010 -4.9139751235967865e+010 -2.9515745938449100e+010 3.2570655449271719e+004 2.4703870492446633e+004 9.8197942706555605e+003
5.1564500000000000e+004 4.1367650485097488e+010 -3.9258531097320358e+010 -2.5294685904371670e+010 2.6022150311429643e+004 3.2347751805072967e+004 1.4582033673098291e+004
5.1568500000000000e+004 4.8839301383709084e+010 -2.6908158977513046e+010 -1.9471826088288273e+010 1.6734500250714114e+004 3.8876798177950950e+004 1.9032858226603232e+004
5.1575500000000000e+004 5.2338737964024323e+010 -1.1467443846079390e+009 -6.0728190519682865e+009 -6.6540742110106285e+003 4.4720770345989935e+004 2.4580203381347244e+004
5.1579500000000000e+004 4.7196555223645515e+010 1.4059120758845341e+010 2.5835649624080305e+009 -2.3349225558476002e+004 4.2376188467627515e+004 2.5059335572096956e+004
5.1583500000000000e+004 3.6183953389772369e+010 2.7439701296779732e+010 1.0873795402056416e+010 -4.0118742177032625e+004 3.3962632266027278e+004 2.2304366351406650e+004
5.1587500000000000e+004 1.9894973235729931e+010 3.6798798924691742e+010 1.7563136798355850e+010 -5.3153833782028727e+004 1.9263807233862186e+004 1.5804735026662109e+004
5.1591500000000000e+004 3.4645166152521038e+008 4.0302646960718460e+010 2.1462887080433636e+010 -5.8452017486658850e+004 7.1943002783485520e+002 6.4485318727999565e+003
5.1595500000000000e+004 -1.9441371133607037e+010 3.7371797283573631e+010 2.1950286316010220e+010 -5.4633629207046819e+004 -1.7198151383838922e+004 -3.5183762553735587e+003
5.1599500000000000e+004 -3.6610557944282890e+010 2.8929206569171837e+010 1.9221934798339500e+010 -4.3867903739083180e+004 -3.0748988847604702e+004 -1.1873272427089225e+004
5.1604500000000000e+004 -5.1798293901326149e+010 1.3380859967645098e+010 1.2492623915886625e+010 -2.6108191717511116e+004 -3.9822406477472243e+004 -1.8561876556166546e+004
5.1608500000000000e+004 -5.8318663017567795e+010 -8.1871323356433773e+008 5.5846806344222450e+009 -1.1782597305598669e+004 -4.1670098506434108e+004 -2.1034608145896349e+004
5.1612500000000000e+004 -6.0107366845304863e+010 -1.5023704399821241e+010 -1.8168967609881759e+009 1.1381420523995341e+003 -4.0056867342728285e+004 -2.1512943436143509e+004
5.1616500000000000e+004 -5.7752463768236374e+010 -2.8232833865393795e+010 -9.1162729183112602e+009 1.2157673312213348e+004 -3.6061684412234536e+004 -2.0521748749522234e+004
5.1620500000000000e+004 -5.1934166521084488e+010 -3.9765874651673798e+010 -1.5879548825787001e+010 2.1183759601940299e+004 -3.0463643424537131e+004 -1.8467619901655911e+004
5.1624500000000000e+004 -4.3332752792756958e+010 -4.9165814489610153e+010 -2.1792051520415066e+010 2.8279164920891017e+004 -2.3787770443115849e+004 -1.5637515357562899e+004
5.1628500000000000e+004 -3.2599135067282040e+010 -5.6124217678381439e+010 -2.6621517588451817e+010 3.3537405539271858e+004 -1.6381091694624711e+004 -1.2226502342193384e+004
5.1635500000000000e+004 -1.0546964030163326e+010 -6.1835369216113747e+010 -3.1958135573930363e+010 3.8491532822179841e+004 -2.3294332104606283e+003 -5.2344529411133444e+003
5.1639500000000000e+004 2.8751411111479325e+009 -6.1197473535740616e+010 -3.3008781376902317e+010 3.8878272415626750e+004 6.0440840658522820e+003 -8.0174877262370649e+002
5.1643500000000000e+004 1.6107802303265043e+010 -5.7651112715282646e+010 -3.2486187752976475e+010 3.7370882185089984e+004 1.4473222636616241e+004 3.8571137678659766e+003
5.1647500000000000e+004 2.8466511791186989e+010 -5.1210412541415077e+010 -3.0326907205847607e+010 3.3782829087000064e+004 2.2752879160502667e+004 8.6519222571676783e+003
5.1651500000000000e+004 3.9188547607861450e+010 -4.1976514781047684e+010 -2.6505860999593853e+010 2.7849517567953884e+004 3.0573413654384742e+004 1.3444720916944780e+004
5.1655500000000000e+004 4.7409323347141861e+010 -3.0186919704473019e+010 -2.1060243213096962e+010 1.9253927080725520e+004 3.7439218875109778e+004 1.8003654481361005e+004
5.1659500000000000e+004 5.2157002491282295e+010 -1.6298236852509611e+010 -1.4133164508678705e+010 7.7161185905839229e+003 4.2557344994685089e+004 2.1934192616263015e+004
5.1665500000000000e+004 5.0530307346130943e+010 6.5919655621497850e+009 -1.7363700473997774e+009 -1.4944805107953316e+004 4.4207283424415844e+004 2.5165775628863084e+004
5.1669500000000000e+004 4.2412652721224113e+010 2.1134954048266380e+010 6.8745253105801191e+009 -3.2059204907400755e+004 3.8928219255708231e+004 2.4120896522585299e+004
5.1673500000000000e+004 2.8560198327620293e+010 3.2748174486798878e+010 1.4515226435612358e+010 -4.7481687099120973e+004 2.7203034120960434e+004 1.9457267734945002e+004
5.1677500000000000e+004 1.0279648633489964e+010 3.9302666279617699e+010 1.9912999743282459e+010 -5.6986498301860658e+004 1.0068829356403894e+004 1.1290601194772256e+004
5.1681500000000000e+004 -9.7871485557699356e+009 3.9511530668418358e+010 2.2106436638951374e+010 -5.7582881015503328e+004 -8.7404897029691165e+003 1.3052255426689571e+003
5.1685500000000000e+004 -2.8545894174389599e+010 3.3591325022950954e+010 2.0890292578012390e+010 -4.9807678751437386e+004 -2.4761214663137020e+004 -8.0588368907055938e+003
5.1689500000000000e+004 -4.3624987214959152e+010 2.3019389709953957e+010 1.6807739333170700e+010 -3.6916063427316767e+004 -3.5462027848667858e+004 -1.5111845912052349e+004
5.1696500000000000e+004 -5.8267106158128670e+010 -1.0082009300100542e+009 5.4928615381157751e+009 -1.1675327108788606e+004 -4.1667920333984635e+004 -2.1044612993226066e+004
5.1700500000000000e+004 -6.0020985646572701e+010 -1.5208387854939823e+010 -1.9097757835837450e+009 1.2318295212797188e+003 -4.0032643765061366e+004 -2.1509761168465277e+004
5.1704500000000000e+004 -5.7636345863891708e+010 -2.8406403252451839e+010 -9.2063128263278980e+009 1.2235994390073036e+004 -3.6022583131225656e+004 -2.0509023049247280e+004
5.1708500000000000e+004 -5.1793627085269821e+010 -3.9924095742591339e+010 -1.5963935733333799e+010 2.1246868459575879e+004 -3.0414585298613107e+004 -1.8447995552490203e+004
5.1712500000000000e+004 -4.3172927025921249e+010 -4.9305846993878319e+010 -2.1868734895683136e+010 2.8327797270906904e+004 -2.3732004902413020e+004 -1.5612804675507379e+004
5.1716500000000000e+004 -3.2424901384207203e+010 -5.6244139588468430e+010 -2.6688964132971695e+010 3.3572243397929196e+004 -1.6320768553104053e+004 -1.2197924630326252e+004
5.1720500000000000e+004 -2.0171447888529331e+010 -6.0529983152273773e+010 -3.0248489269397728e+010 3.7047049283287153e+004 -8.4146206319488974e+003 -8.3351452949874238e+003
5.1726500000000000e+004 -2.9829045091458875e+008 -6.1693619366695518e+010 -3.2930186801303497e+010 3.8954461559258991e+004 4.0046766113603348e+003 -1.8990522391649959e+003
5.1730500000000000e+004 1.3041209218840509e+010 -5.8852949352066772e+010 -3.2795636445222610e+010 3.7920101819359763e+004 1.2436505064976265e+004 2.7121878771134502e+003
5.1734500000000000e+004 2.5678770777245010e+010 -5.3107852601402657e+010 -3.1036851075679886e+010 3.4857733925566390e+004 2.0775652973064000e+004 7.4842528130730407e+003
5.1738500000000000e+004 3.6873093258959618e+010 -4.4534902199301285e+010 -2.7617850528234306e+010 2.9520693445606179e+004 2.8744168416095919e+004 1.2294252948083666e+004
5.1742500000000000e+004 4.5785850698610001e+010 -3.3332410675765465e+010 -2.2557620651854759e+010 2.1599874909748716e+004 3.5900662645425044e+004 1.6938472983336756e+004
5.1746500000000000e+004 5.1469722772688080e+010 -1.9894124291669544e+010 -1.5968236566667568e+010 1.0792228694332747e+004 4.1535690143014297e+004 2.1069383965239351e+004
5.1750500000000000e+004 5.2898142000402908e+010 -4.9228277382592468e+009 -8.1186311053973684e+009 -3.0111991540490758e+003 4.4552072529345714e+004 2.4112214621068091e+004
5.1757500000000000e+004 4.2418246880056801e+010 2.1165725627715134e+010 6.9049257940374479e+009 -3.2186713571040429e+004 3.8864802219657395e+004 2.4100165835388125e+004
5.1761500000000000e+004 2.8525724652085110e+010 3.2748439598081486e+010 1.4533457141831457e+010 -4.7580369168809710e+004 2.7091135525695259e+004 1.9407637640363326e+004
5.1765500000000000e+004 1.0220730129831148e+010 3.9258303085473755e+010 1.9909893309456135e+010 -5.7025165249088015e+004 9.9274940828642521e+003 1.1219014552134029e+004
5.1769500000000000e+004 -9.8471243031401272e+009 3.9418239183279007e+010 2.2077268837403973e+010 -5.7551190739957012e+004 -8.8762694636696669e+003 1.2293078187764095e+003
5.1773500000000000e+004 -2.8585012220829163e+010 3.3456470659632484e+010 2.0836725413491459e+010 -4.9723171187419175e+004 -2.4862757308588622e+004 -8.1219397412948611e+003
5.1777500000000000e+004 -4.3629868363942963e+010 2.2856922708468628e+010 1.6735839216521658e+010 -3.6806922662879813e+004 -3.5520293689320104e+004 -1.5154378298104306e+004
5.1781500000000000e+004 -5.3839151145999573e+010 9.5381875822533627e+009 1.0680953314285255e+010 -2.2222775824283406e+004 -4.0718280142043499e+004 -1.9443514292218202e+004
5.1788500000000000e+004 -5.9924609734951874e+010 -1.5381659712666075e+010 -1.9980215650669620e+009 1.3241891094669959e+003 -4.0008779746151187e+004 -2.1506655939902041e+004
5.1792500000000000e+004 -5.7510641933783371e+010 -2.8568706608496010e+010 -9.2917616250220127e+009 1.2313263388160160e+004 -3.5983944849918938e+004 -2.0496451993251801e+004
5.1796500000000000e+004 -5.1643831721579277e+010 -4.0071216212292328e+010 -1.6043790210139738e+010 2.1309101839979339e+004 -3.0366014010092367e+004 -1.8428550270474127e+004
5.1800500000000000e+004 -4.3004131593655190e+010 -4.9434947893728416e+010 -2.1940948556648643e+010 2.8375633880148987e+004 -2.3676731085160682e+004 -1.5588276453794550e+004
5.1804500000000000e+004 -3.2241970154967632e+010 -5.6353302779790901e+010 -2.6752004522961483e+010 3.3606292926950562e+004 -1.6260958906402224e+004 -1.2169533865224106e+004
5.1808500000000000e+004 -1.9979081484962238e+010 -6.0617918606951630e+010 -3.0301176566075947e+010 3.7067619704397206e+004 -8.3518047969387426e+003 -8.3037421986167901e+003
5.1812500000000000e+004 -6.8228135022526121e+009 -6.2089028343818893e+010 -3.2450816747698376e+010 3.8773406686012153e+004 -1.2038197613936849e+002 -4.0837359654763486e+003
5.1818500000000000e+004 1.3236420397693188e+010 -5.8885116230604736e+010 -3.2818839669455185e+010 3.7905315993757038e+004 1.2501479243718715e+004 2.7484170884561731e+003
5.1822500000000000e+004 2.5866117936972946e+010 -5.3117817353400322e+010 -3.1047383733941807e+010 3.4826715423745387e+004 2.0838817476077282e+004 7.5211937605149051e+003
5.1826500000000000e+004 3.7046630644522591e+010 -4.4523709046556572e+010 -2.7615656270805214e+010 2.9471419925199782e+004 2.8802903764246214e+004 1.2330711897272604e+004
5.1830500000000000e+004 4.5938871348032516e+010 -3.3302253885157681e+010 -2.2543179929110584e+010 2.1530039288248056e+004 3.5950804100196168e+004 1.6972460478697201e+004
5.1834500000000000e+004 5.1594779423700768e+010 -1.9849028035589058e+010 -1.5942931914838507e+010 1.0700070172172615e+004 4.1570656045057629e+004 2.1097562942217330e+004
5.1838500000000000e+004 5.2987545793515610e+010 -4.8696307613917904e+009 -8.0853247922343216e+009 -3.1248226464078793e+003 4.4562075342929704e+004 2.4129264242413465e+004
5.1842500000000000e+004 4.9142993635080360e+010 1.0474495991842758e+010 5.1027653597183341e+008 -1.9441131547997804e+004 4.3399471826390254e+004 2.5200432728101197e+004
5.1849500000000000e+004 2.8500321733385704e+010 3.2757262914012585e+010 1.4554863141950788e+010 -4.7678050939723042e+004 2.6980573085284188e+004 1.9358570792001141e+004
5.1853500000000000e+004 1.0171073554906422e+010 3.9223006423449905e+010 1.9910197194265450e+010 -5.7063752485625228e+004 9.7876579454703005e+003 1.1148171726412471e+004
5.1857500000000000e+004 -9.8979566716088181e+009 3.9334472153724747e+010 2.2051752052527481e+010 -5.7520194461515144e+004 -9.0109758674468194e+003 1.1539914174070420e+003
5.1861500000000000e+004 -2.8615282837432716e+010 3.3331399274580360e+010 2.0786964442589314e+010 -4.9639585261257504e+004 -2.4963872585940575e+004 -8.1847528622884747e+003
5.1865500000000000e+004 -4.3626190173603813e+010 2.2704299167068726e+010 1.6667797736201263e+010 -3.6698478166526453e+004 -3.5578585235627746e+004 -1.5196874337630035e+004
5.1869500000000000e+004 -5.3796986539855484e+010 9.3722224264556732e+009 1.0601758792219984e+010 -2.2111270955181135e+004 -4.0738625832941827e+004 -1.9466037110053363e+004
5.1873500000000000e+004 -5.8978312643215279e+010 -4.9493930828991566e+009 3.4896789664857454e+009 -8.0815812235714438e+003 -4.1519058144666866e+004 -2.1337958787606247e+004
5.1879500000000000e+004 -5.8337598267217499e+010 -2.5563664034533150e+010 -7.5872036954979267e+009 9.8346020423161008e+003 -3.7129192994197736e+004 -2.0851180458502840e+004
5.1883500000000000e+004 -5.3243946764334770e+010 -3.7522701799714249e+010 -1.4502921395533556e+010 1.9310773565074491e+004 -3.1840884233440054e+004 -1.9009159365030922e+004
5.1887500000000000e+004 -4.5214887953848732e+010 -4.7437038876416115e+010 -2.0630874769520184e+010 2.6836134033527564e+004 -2.5373864858219651e+004 -1.6335194452731446e+004
5.1891500000000000e+004 -3.4908719145829643e+010 -5.4969713697572906e+010 -2.5722798807755451e+010 3.2503948053678207e+004 -1.8109280110993030e+004 -1.3042551685642480e+004
5.1895500000000000e+004 -2.2953177155439991e+010 -5.9891956619141724e+010 -2.9591390008271954e+010 3.6390432679465404e+004 -1.0302236906294389e+004 -9.2754041310575121e+003
5.1899500000000000e+004 -9.9573759700678329e+009 -6.2049237618366768e+010 -3.2090932279310707e+010 3.8523703505292986e+004 -2.1349491735183510e+003 -5.1339995340298974e+003
5.1903500000000000e+004 3.4686333656492438e+009 -6.1343508174273773e+010 -3.3105782647070911e+010 3.8868295270744871e+004 6.2415561922886045e+003 -6.9533266166285955e+002
5.1910500000000000e+004 2.6062071521755665e+010 -5.3115678848636208e+010 -3.1052930589760986e+010 3.4795404009353049e+004 2.0903439246514979e+004 7.5588821553677726e+003
5.1914500000000000e+004 3.7228614356899689e+010 -4.4499891905490303e+010 -2.7608202506220493e+010 2.9421487424978863e+004 2.8863182302960238e+004 1.2368003705979920e+004
5.1918500000000000e+004 4.6100024462406540e+010 -3.3258940716850250e+010 -2.2523182591509804e+010 2.1459019523935189e+004 3.6002455889573052e+004 1.7007323229586178e+004
5.1922500000000000e+004 5.1727447468825333e+010 -1.9790289587130375e+010 -1.5911774421269285e+010 1.0606062617343956e+004 4.1606874976285479e+004 2.1126557643123451e+004
5.1926500000000000e+004 5.3083800540786018e+010 -4.8024522387307196e+009 -8.0459192027680130e+009 -3.2409842586349118e+003 4.4572719938521033e+004 2.4146886394638863e+004
5.1930500000000000e+004 4.9196247371791885e+010 1.0539091564586611e+010 5.5272197648473644e+008 -1.9571634396654015e+004 4.3371668577789060e+004 2.5198994628271645e+004
5.1934500000000000e+004 3.9468193405900818e+010 2.4505587608667786e+010 9.0225877331236897e+009 -3.6600588222392333e+004 3.6380355403064277e+004 2.3230586611772036e+004
5.1941500000000000e+004 1.0125350052376268e+010 3.9199870095147247e+010 1.9915915862070007e+010 -5.7102444830522742e+004 9.6449913115074542e+003 1.1075829057960116e+004
5.1945500000000000e+004 -9.9446033976400967e+009 3.9261993537461021e+010 2.2031157211667427e+010 -5.7487744241819040e+004 -9.1477495555426649e+003 1.0774117866593383e+003
5.1949500000000000e+004 -2.8640722313473564e+010 3.3217116741855141e+010 2.0741785874093060e+010 -4.9553882491460390e+004 -2.5065795360538214e+004 -8.2482429488769667e+003
5.1953500000000000e+004 -4.3616959172989754e+010 2.2562382789369255e+010 1.6604207541753094e+010 -3.6588075729641954e+004 -3.5636607731367141e+004 -1.5239476837089953e+004
5.1957500000000000e+004 -5.3748680538988571e+010 9.2171803540080070e+009 1.0527050079793924e+010 -2.1998346325916133e+004 -4.0758064439047601e+004 -1.9488289465154859e+004
5.1961500000000000e+004 -5.8892395018696800e+010 -5.1058877657593021e+009 3.4102396778566904e+009 -7.9781264748341755e+003 -4.1509659285789050e+004 -2.1343821992494250e+004
5.1965500000000000e+004 -5.9450780032908981e+010 -1.9114855387901936e+010 -4.0143418231973324e+009 4.4357715816640412e+003 -3.9131648432893911e+004 -2.1361043412463852e+004
5.1969500000000000e+004 -5.6052678426563278e+010 -3.1909063306454571e+010 -1.1200378140291952e+010 1.4895261362645088e+004 -3.4619996839059473e+004 -2.0035860288393247e+004
5.1973500000000000e+004 -4.9384171272504372e+010 -4.2879998432204636e+010 -1.7751670231622562e+010 2.3370203844666914e+004 -2.8675235990378700e+004 -1.7739344525550878e+004
5.1977500000000000e+004 -4.0118588870647377e+010 -5.1618758248068947e+010 -2.3379965948348076e+010 2.9940801106672174e+004 -2.1764961502255213e+004 -1.4729586078181019e+004
5.1981500000000000e+004 -2.8897940837241371e+010 -5.7848739342303612e+010 -2.7870930692461830e+010 3.4697173875928762e+004 -1.4198724162307211e+004 -1.1181281978954978e+004
5.1985500000000000e+004 -1.6338415043098516e+010 -6.1382001168562675e+010 -3.1060268279460655e+010 3.7693687767955504e+004 -6.1888545371790924e+003 -7.2134896782023297e+003
5.1989500000000000e+004 -3.0468475364341440e+009 -6.2094031148845497e+010 -3.2818533294187607e+010 3.8927617663312420e+004 2.1030520611068778e+003 -2.9122448286653253e+003
5.1993500000000000e+004 1.0357347306971422e+010 -5.9913013355613136e+010 -3.3043124429013622e+010 3.8327308802449719e+004 1.0527411775399749e+004 1.6499817368859271e+003
5.2000500000000000e+004 3.2072622580436207e+010 -4.9124705016119194e+010 -2.9531567126585361e+010 3.2370488712523722e+004 2.5016676970036180e+004 1.0007374026740345e+004
5.2004500000000000e+004 4.2185802429306252e+010 -3.9140132172382515e+010 -2.5246486918630074e+010 2.5723061832612766e+004 3.2629551360746205e+004 1.4763286092853128e+004
5.2008500000000000e+004 4.9535259490451782e+010 -2.6701416656463985e+010 -1.9363871323782475e+010 1.6324768471893254e+004 3.9100654707724585e+004 1.9194601020846403e+004
5.2012500000000000e+004 5.3124016302244980e+010 -1.2347072771403172e+010 -1.2067977291564018e+010 3.9389854260492621e+003 4.3531499601731746e+004 2.2845921023305244e+004
5.2016500000000000e+004 5.1926200639869911e+010 3.0009924799060636e+009 -3.7448589983241434e+009 -1.1295912768597762e+004 4.4593527071868120e+004 2.4993229143952489e+004
5.2020500000000000e+004 4.5104765140069717e+010 1.7896042595245819e+010 4.9195021523971281e+009 -2.8311369689360807e+004 4.0629099982748659e+004 2.4640257692652525e+004
5.2024500000000000e+004 3.2451622005764397e+010 3.0346832863538887e+010 1.2883039322555256e+010 -4.4450998028476315e+004 3.0326518904367695e+004 2.0810851114069545e+004
